0.803065
1.965973
0.145364
-0.268573
-0.360730
-0.901824
-1.223426
-1.428917
-1.663475
-1.821259
-1.462935
-0.872725
-0.117575
0.261114
0.606973
0.704047
0.651790
0.591562
0.668242
0.715776
0.841325
0.882377
0.640176
0.643655
0.501131
1.695760
0.354467
-0.237703
-0.430882
-0.914483
-1.237840
-1.510090
-1.888083
-1.904502
-1.456082
-0.656892
0.068120
0.455285
0.723724
0.791053
0.818899
0.774670
0.651328
0.746916
0.572276
0.720981
0.628471
0.733476
1.661517
1.062456
0.814028
0.445609
-0.158380
-0.227117
-0.744454
-1.333258
-1.644205
-1.812236
-1.694099
-1.241659
-0.489442
0.144637
0.450100
0.407137
0.309011
0.252508
0.246237
0.184915
0.126859
0.385015
1.678076
1.176747
2.116955
1.836643
-0.025154
-0.205393
-0.504321
-0.776922
-0.724659
-0.962389
-1.443641
-1.646468
-1.618162
-1.163604
-0.538854
0.130746
0.397816
0.617167
0.533928
0.513292
0.647073
0.481514
0.863356
0.629992
0.493535
0.347550
1.472543
2.002475
-0.073147
-0.158045
-0.561107
-0.907455
-1.366171
-1.954886
-2.047657
-1.443691
-0.503014
0.225816
0.404464
0.543781
0.487096
0.493894
0.685899
0.657927
0.594051
0.540702
0.258303
0.415544
0.098077
0.134599
0.834298
2.307027
1.547215
0.151183
-0.000868
-0.036286
-0.395635
-0.611439
-0.922532
-1.402324
-1.813481
-1.690323
-1.411036
-0.834057
-0.220027
0.069532
0.391686
0.548798
0.576424
0.763534
0.532267
0.471557
0.616147
0.528343
1.324709
1.192479
-0.761548
-1.174030
-1.351404
-1.376660
-1.495173
-1.564590
-1.386875
-0.777992
-0.058889
0.190584
0.343695
0.249028
0.337845
0.405389
0.623145
0.675313
0.636933
0.454555
0.265609
0.332834
1.552308
1.362736
1.428013
1.977856
0.109800
-0.223022
-0.337396
-0.735847
-0.965777
-1.401632
-1.763103
-1.798959
-1.469797
-0.778878
-0.254714
0.169799
0.292471
0.357787
0.434913
0.453615
0.594991
0.607815
0.974031
0.866722
0.741055
0.720260
2.019432
0.711602
-0.730838
-1.617372
-1.887531
-1.893506
-1.357853
0.161111
1.442132
1.398464
0.875839
0.528953
0.315391
0.179276
0.048461
-0.002235
-0.009826
-0.052114
-0.016144
0.154975
0.218256
-0.202181
-0.206423
-0.077872
0.605775
0.938160
0.025166
-0.536266
-0.579663
-0.849827
-0.633711
-1.070919
-0.759087
-1.040788
-1.530068
-1.353378
-0.767126
-0.164622
0.402188
0.555361
0.469344
0.313903
0.284142
0.378363
0.307010
0.550686
2.343912
2.111448
2.091709
-0.246193
-1.318421
-1.613845
-1.834072
-1.962836
-1.454130
-0.144695
0.686178
0.888893
0.625296
0.481257
0.453080
0.648259
0.787160
0.727127
0.161727
-0.034044
-0.073633
-0.065268
-0.073321
0.061805
0.247922
0.960044
0.963770
1.964364
0.451182
-0.226123
-0.044136
-0.682701
-0.838993
-1.122027
-1.555726
-1.822513
-1.787177
-1.275370
-0.627789
-0.080404
0.309958
0.586367
0.711835
0.780382
0.813767
0.637945
0.933533
0.712168
0.617793
0.579894
1.364793
-0.149174
-1.014237
-1.338559
-1.664408
-2.309124
-2.084997
-0.865175
-0.001030
0.184047
0.343086
0.597824
0.822305
0.736100
0.660831
0.588590
0.512469
0.535838
0.576358
0.699108
0.660841
0.420874
0.463878
0.259763
2.692875
1.193139
0.574408
-0.730631
-1.176040
-1.591709
-2.003301
-1.614060
-0.118898
0.784037
0.692905
0.564223
0.407111
0.229256
0.070518
-0.011976
-0.025185
0.012967
0.016302
0.300204
0.048713
-0.151291
-0.142749
-0.020816
1.881307
0.809668
0.459471
0.382546
-0.430003
-0.686285
-0.798630
-0.935760
-1.129875
-1.289142
-1.323290
-1.424864
-0.824185
0.023447
0.316753
0.279066
0.185479
0.055040
0.022364
0.125019
0.152501
0.314632
2.136685
1.698056
1.939022
0.649956
-0.303531
-1.443883
-1.676562
-2.141354
-1.980841
-0.791001
0.351985
0.614316
0.444397
0.434885
0.296047
0.222286
0.152868
0.097981
0.155186
0.185956
0.312828
0.754923
0.753371
0.291714
0.331363
0.348087
-0.862403
-0.500271
-0.633064
-0.738610
-0.848188
-0.990378
-1.277632
-1.584075
-1.635571
-1.371010
-0.779721
0.149041
0.616198
0.954618
1.024300
0.914044
0.905799
0.716479
0.720711
1.151445
1.264959
0.842704
0.973006
0.987620
2.086779
0.251538
-1.142869
-1.572465
-1.726523
-1.864109
-1.633277
-0.535473
0.683641
0.976816
0.598680
0.522638
0.507835
0.763457
0.842130
0.614929
0.018971
-0.093177
-0.230107
-0.243802
-0.116840
-0.006671
0.340823
0.957074
0.494774
1.842457
0.769510
-0.182081
-0.330051
-0.421416
-0.838318
-1.228445
-1.266399
-1.767434
-1.791611
-1.478756
-0.845876
-0.098609
0.437402
0.762107
0.844559
0.809366
0.783444
0.582182
0.954860
0.577674
0.731503
0.659156
2.876947
0.972641
-0.043531
-1.159097
-1.606167
-2.101617
-1.597634
-0.275138
0.555773
0.485426
0.351845
0.296076
0.165107
0.091550
0.005300
-0.012478
-0.012316
0.029486
0.059736
0.415407
0.496027
-0.032158
-0.078689
0.117503
-0.168066
-0.660683
-1.184559
-1.635564
-1.934233
-2.080011
-1.181764
-0.239882
0.213489
0.320887
0.411415
0.606720
0.626236
0.564345
0.441903
0.267412
0.292859
0.508361
0.705915
0.330598
0.382639
0.309563
1.763169
1.339249
1.219594
1.350322
-0.149624
-0.297664
-0.513669
-0.839580
-0.941349
-1.069077
-1.350139
-1.597418
-1.358740
-0.973004
-0.444096
0.282903
0.527589
0.572999
0.616017
0.670803
0.826141
1.181719
1.519450
1.145735
0.727949
-1.106861
2.050624
1.083101
-0.545842
-0.898891
-1.029493
-1.271970
-1.444954
-1.549267
-1.543409
-1.208346
-0.399376
0.368641
0.867028
1.016462
1.221751
1.007357
0.541598
0.362482
0.282674
0.233731
0.267389
0.178574
0.141557
0.268580
1.128567
1.981928
0.501601
-0.109612
-0.207691
-0.587835
-0.950744
-1.179753
-1.476133
-1.826316
-1.732883
-1.416832
-0.563184
0.051806
0.575632
0.644981
0.693603
0.761547
0.636910
0.478644
0.864930
0.601916
0.551628
0.577290
2.129697
1.574307
-0.246975
-0.299976
-0.594304
-0.877566
-1.096673
-1.229416
-1.552998
-1.691627
-1.513235
-0.734872
-0.151360
0.349709
0.544051
0.582742
0.477163
0.419797
0.500906
0.467045
0.859463
0.731475
0.764807
0.587839
2.072510
0.770547
-1.240712
-1.437797
-1.768022
-1.794813
-1.072946
0.090804
0.806932
0.619041
0.418598
0.344049
0.190118
0.105301
0.088919
0.018321
-0.073709
0.262885
0.062306
-0.036514
-0.135273
-0.174518
0.588225
1.295748
1.731025
1.113154
0.100469
-0.475021
-1.046050
-1.880288
-2.571769
-1.898133
-0.394720
0.452901
0.403828
0.381523
0.600120
0.448440
0.368139
0.283377
0.310144
0.091547
0.176309
0.176309
0.238765
0.506435
0.421673
0.461823
0.925706
2.145024
0.616451
-0.246518
-0.334823
-0.484727
-0.804127
-0.922553
-1.170454
-1.533364
-1.592969
-1.597659
-1.013322
-0.547365
0.000117
0.208362
0.474289
0.607367
0.695163
0.721368
1.026600
0.794410
1.000065
1.032959
-0.212378
-0.570270
-0.105887
-0.563460
-0.677457
-1.017339
-1.345732
-1.776829
-1.739504
-1.434634
-0.895819
-0.366708
0.430001
0.718668
1.084552
0.889949
0.997360
0.922091
0.955938
1.010092
0.909878
0.812512
0.974885
1.000091
2.423129
0.048214
-1.215259
-1.530115
-1.803319
-1.931753
-1.444633
-0.195306
0.861831
1.010967
0.798641
0.640773
0.541507
0.366164
0.290654
0.162593
0.111593
0.140494
0.568700
0.357360
-0.009868
-0.092758
-0.108319
0.008709
0.895215
1.401655
-0.206135
-0.465435
-1.162675
-1.323144
-1.639803
-1.889047
-1.907554
-1.133120
-0.101215
0.426749
0.709905
0.613343
0.465568
0.453846
0.562161
0.678709
1.026553
1.172660
0.595465
0.494158
0.182067
0.150074
0.393048
-0.225877
-1.250046
-1.218605
-1.322952
-1.571303
-1.321831
-0.570881
0.597916
1.112861
1.045521
0.932376
0.904314
0.594397
0.603023
0.441645
0.699449
0.337815
-0.399525
-0.415018
-0.521363
-0.544083
1.623772
0.075346
1.882990
0.811983
0.763259
-0.689583
-1.033080
-1.351125
-1.591829
-1.899299
-1.699797
-0.464254
0.807942
1.013462
0.679061
0.629165
0.483177
0.441343
0.293732
0.221075
0.651821
0.370530
-0.062132
-0.116440
-0.176562
0.034560
1.382283
-0.029136
0.097597
-0.913555
-1.390388
-1.493671
-1.777856
-1.883187
-1.420378
-0.383454
0.469215
0.804655
0.753024
0.548187
0.762565
0.559509
0.598290
0.551174
0.860956
0.750548
0.348463
0.253537
0.335033
0.216589
1.594995
-0.205700
-0.184848
-0.791018
-1.278883
-1.532757
-1.774866
-1.888224
-1.349934
-0.076622
0.760019
0.993627
0.850589
0.736799
0.756950
0.659957
0.593663
0.419723
0.794657
0.574948
0.095953
0.123906
0.017098
0.109971
2.313614
1.100082
0.708865
-0.727041
-1.143896
-1.444711
-1.815061
-2.057754
-1.308783
-0.006466
0.686007
0.648542
0.619670
0.634201
0.446796
0.339795
0.224095
0.123017
0.273785
0.449622
0.014041
-0.048409
-0.019334
-0.010676
1.281507
1.468030
0.029066
0.191794
-0.438805
-0.622479
-0.924203
-1.589906
-2.209761
-2.070917
-1.098764
-0.003656
0.589263
0.758434
0.647829
0.512761
0.452393
0.568716
0.974307
0.944668
0.310889
0.162794
-0.051754
0.117792
0.807653
1.859349
0.243031
-0.084106
-0.690148
-1.018380
-1.406186
-1.802087
-2.003959
-1.810611
-0.808818
-0.040264
0.393049
0.508700
0.482462
0.574751
0.641321
0.722518
0.899524
0.905574
0.558371
0.416099
0.325480
0.326680
-0.259860
-1.231600
-1.567162
-1.428134
-1.324707
-1.374353
-1.326887
-0.601781
0.259793
0.430005
0.133280
0.075970
0.370841
0.612008
0.676575
0.676120
0.769655
0.864281
0.376159
0.256503
0.251900
0.244080
1.414837
1.702480
2.520886
0.504821
0.786529
-0.434037
-0.995399
-1.284636
-1.528767
-1.753371
-1.389023
-0.085367
0.817185
0.962841
0.758690
0.643904
0.550754
0.412704
0.267777
0.107426
0.528091
0.196910
-0.336673
-0.435260
-0.364669
-0.451316
2.863207
1.045466
0.725290
-0.516312
-0.854808
-1.168536
-1.643916
-1.924609
-1.350262
-0.022873
0.761583
0.749868
0.620556
0.523749
0.441128
0.300484
0.093827
0.021016
0.166382
0.273902
-0.189135
-0.337688
-0.320953
-0.257368
2.032563
0.574359
0.179626
-0.778149
-1.026029
-1.383491
-1.754995
-1.960181
-1.269197
0.058049
0.786039
1.029659
0.819713
0.663846
0.566505
0.539379
0.341090
0.140427
0.589046
0.403769
-0.101610
-0.151925
-0.141201
-0.157290
2.280235
0.693268
0.892185
-0.449327
-0.938842
-1.183763
-1.592505
-1.873762
-1.444714
-0.258247
0.696436
0.855139
0.679799
0.657385
0.624315
0.575352
0.306456
0.245606
0.636494
0.057353
-0.203009
-0.366794
-0.422218
-0.466845
-0.557856
-0.478970
-0.865709
-1.014719
-1.417573
-1.920232
-1.912312
-1.382787
-0.262598
0.349571
0.515051
0.553627
0.483580
0.504597
0.649225
0.994824
1.228539
0.777919
0.646640
0.274947
0.296822
0.550530
1.924310
0.062573
1.268343
0.395736
-0.098586
-1.046716
-1.309218
-1.555717
-1.878883
-2.083056
-1.578663
-0.293150
0.591851
0.631450
0.496286
0.582785
0.543972
0.475627
0.459742
0.450858
0.622474
0.948979
0.649603
0.525378
0.560897
0.640008
1.952848
0.526737
-0.048338
-0.086441
-0.730937
-1.113692
-1.505637
-1.889918
-1.632328
-0.724817
0.351458
0.968704
0.836742
0.642213
0.831798
0.292058
0.383961
0.281311
0.706148
0.478625
-0.107263
-0.161875
-0.162236
-0.089120
1.882579
0.547065
0.532997
-0.749820
-1.056516
-1.362975
-1.784084
-2.145344
-1.593503
-0.066512
0.842789
0.771553
0.677971
0.713144
0.666009
0.567958
0.395476
0.278100
0.344356
0.526512
0.077004
-0.043094
-0.033895
0.012232
0.485751
-0.385760
-0.819448
-1.305116
-1.808071
-2.319418
-2.005625
-0.530178
0.568591
0.699723
0.609983
0.623428
0.567267
0.463768
0.473782
0.329001
0.419625
0.748673
0.364171
0.257085
0.155951
0.244335
1.077562
1.084920
1.967723
0.840753
0.978896
-0.562267
-0.964523
-1.417339
-2.155660
-2.335496
-1.349712
-0.074167
0.489460
0.500569
0.495156
0.536493
0.559209
0.459807
0.384218
0.324969
0.603547
0.309565
0.089671
0.072050
0.059907
0.187169
0.498107
0.282192
-0.312462
-0.396154
-0.838984
-1.346536
-2.296278
-2.362518
-1.590981
-0.211417
0.689148
0.924639
0.843367
0.721570
0.831040
0.660270
0.731930
0.560426
0.391593
0.487746
0.276193
0.653229
0.604092
0.199789
1.805089
0.365576
0.517469
-0.585889
-1.136846
-1.332374
-1.707223
-1.994242
-1.584066
-0.340617
0.712260
1.015991
0.830349
0.703643
0.641566
0.601742
0.366145
0.373204
0.602561
0.312633
-0.073702
-0.110449
-0.101856
0.119034
1.540885
-0.012604
0.303514
-0.925321
-1.125239
-1.480177
-1.741487
-1.844900
-1.418200
-0.140419
0.924104
1.155694
0.971705
0.761941
0.678602
0.563213
0.383798
0.312930
0.451336
0.440972
0.122884
-0.048131
0.048321
0.076579
2.354679
0.429255
0.500451
-0.621079
-1.058514
-1.254930
-1.704558
-1.773312
-1.278709
-0.121401
0.805720
0.999186
0.710825
0.622554
0.636381
0.573806
0.330922
0.215962
0.476007
0.238935
-0.168805
-0.288592
-0.317119
-0.307665
2.519556
1.046874
0.383048
-0.672158
-1.043622
-1.420602
-1.815090
-1.976174
-1.237581
0.121218
0.765940
0.713090
0.572119
0.571959
0.472364
0.368930
0.284542
0.180333
0.406795
0.308456
-0.038110
-0.208430
-0.196283
-0.107174
1.608546
0.540673
0.230825
-0.571377
-1.161333
-1.400647
-1.703745
-2.006506
-1.614038
-0.253312
0.779897
1.009748
0.745717
0.632814
0.548768
0.511007
0.423338
0.270311
0.712506
0.390002
0.080082
0.119359
0.015448
0.091918
2.143428
0.979408
0.538321
-0.104250
-0.752436
-0.988680
-1.446411
-1.826210
-1.614148
-0.606002
0.339211
0.865240
0.884363
0.658324
0.541300
0.577471
0.310712
0.063652
0.405314
0.247728
-0.155009
-0.380265
-0.223542
-0.457522
1.093183
-0.111694
-0.948982
-1.378037
-1.675813
-1.717385
-1.664846
-0.702336
0.328788
0.894519
0.741908
0.738977
0.514751
0.569421
0.422349
0.372734
0.721962
0.338169
0.042093
-0.074176
-0.146711
-0.220009
1.821798
0.039337
2.492399
0.957750
0.943286
-0.518900
-0.854976
-1.165779
-1.563217
-1.955020
-1.728596
-0.529127
0.531765
0.764829
0.609388
0.543564
0.474634
0.399534
0.294984
0.189151
0.285502
0.470218
0.019020
-0.166436
-0.224456
-0.269517
1.716975
0.164477
-0.155221
-0.124934
-0.780852
-0.887730
-1.004702
-1.321582
-1.603843
-1.696175
-1.440841
-0.876406
-0.194387
0.259936
0.468787
0.500009
0.492504
0.450700
0.573090
0.888223
1.245722
1.429427
1.299847
0.596976
1.765957
0.226604
0.419564
-0.707115
-1.082094
-1.453124
-1.725053
-2.000149
-1.499736
-0.285476
0.818627
0.993530
0.778775
0.650890
0.568983
0.561654
0.341122
0.249995
0.626721
0.458851
0.036645
0.073269
0.038982
0.142580
1.432550
2.000101
0.276147
-0.088561
-0.547773
-0.805278
-1.135477
-1.502882
-1.985646
-1.831434
-1.206369
-0.357879
0.250912
0.356494
0.402065
0.345216
0.361055
0.539711
0.997869
0.768050
0.665771
0.452256
0.349973
0.263130
0.889231
1.481401
0.016273
-0.148170
-0.305566
-0.649204
-0.879908
-1.040680
-1.416110
-1.733828
-1.758670
-1.186227
-0.537662
0.235735
0.720748
0.812417
0.820667
0.772208
0.740821
0.887419
0.911392
1.153512
1.016200
-0.802000
1.693617
0.037550
0.119237
-0.948331
-1.243048
-1.468116
-1.814713
-2.045568
-1.409692
-0.282993
0.695273
0.923596
0.621373
0.642505
0.584941
0.573900
0.501932
0.399019
0.643228
0.734982
0.236434
0.260779
0.197848
0.346250
1.658796
0.879090
0.992746
-0.301357
-1.018805
-1.328634
-1.660238
-1.907527
-1.627576
-0.484442
0.640991
1.009864
0.839057
0.712616
0.654159
0.483384
0.278633
0.161059
0.419250
0.476441
-0.134664
-0.178457
-0.306163
-0.258224
2.358306
0.666910
0.642664
-0.492888
-0.557931
-1.260525
-1.811776
-2.095674
-1.707150
-0.385534
0.694189
0.730474
0.658685
0.706474
0.630650
0.400385
0.225784
0.173501
0.248636
0.539889
0.070462
-0.113494
-0.226507
-0.095531
2.495625
0.930770
0.869506
-0.287992
-0.827946
-1.301595
-1.836913
-2.163792
-1.644738
-0.273145
0.521898
0.501057
0.389912
0.377833
0.535316
0.491799
0.384899
0.250668
0.369547
0.114757
-0.064450
-0.031350
0.018512
0.179821
1.885159
0.997039
0.730527
0.118322
-0.758185
-0.999991
-1.481689
-1.991587
-2.081078
-1.491372
-0.193019
0.374893
0.507025
0.634080
0.683317
0.573609
0.654888
0.668029
0.732799
0.417712
0.134873
-0.002268
-0.107284
-0.005798
2.569774
1.233739
0.528226
-0.637336
-0.961383
-1.328227
-1.777158
-2.017324
-1.406824
-0.107219
0.662995
0.657328
0.581272
0.539188
0.458506
0.367824
0.218111
0.121056
0.429297
0.164944
-0.128777
-0.126750
-0.108884
0.067622
1.937384
1.083452
0.695133
-0.693916
-1.024360
-1.355378
-1.652979
-2.029977
-1.679265
-0.243891
0.815416
0.870069
0.645574
0.567046
0.537032
0.429466
0.297063
0.222893
0.294846
0.590601
0.120092
-0.156046
-0.172930
-0.097326
1.897282
0.662918
0.491345
-0.666402
-0.978178
-1.243517
-1.694647
-2.059364
-1.744610
-0.681239
0.560318
0.964636
0.746223
0.603977
0.513656
0.491071
0.338533
0.269095
0.607466
0.546617
0.188167
0.043565
0.059393
0.083696
1.973325
0.780952
0.816587
-0.790058
-1.064413
-1.344765
-1.730284
-2.092430
-1.724484
-0.454494
0.507438
0.722897
0.623653
0.598714
0.564586
0.459288
0.369096
0.410215
0.661376
0.433358
0.104089
0.031999
0.007160
0.136194
1.768985
0.198555
0.173016
-0.667535
-1.149247
-1.414195
-1.826516
-1.952424
-1.580143
-0.225463
0.697193
1.073241
0.759257
0.617141
0.548643
0.512800
0.438668
0.306342
0.816119
0.519936
0.145623
0.038505
0.061548
0.139951
2.225442
1.013206
0.857806
-0.079818
-0.771441
-1.168068
-1.468962
-1.767522
-1.535450
-0.483971
0.467213
0.897184
0.703607
0.553549
0.539370
0.360365
0.247939
0.125812
0.542356
0.134923
-0.239448
-0.316526
-0.432260
-0.405307
1.803813
2.446929
0.162941
0.583219
0.119397
-0.498751
-0.750784
-0.884366
-1.258063
-1.384089
-1.537213
-1.419472
-0.834309
-0.008008
0.428434
0.722353
0.659200
0.510331
0.383097
0.294732
0.264090
0.196093
0.045450
-0.045023
1.448702
0.184867
0.243182
-0.700163
-1.194941
-1.408145
-1.831186
-1.877394
-1.449087
-0.225140
0.754399
1.110207
0.882072
0.694078
0.672530
0.532962
0.313113
0.456539
0.832287
0.511161
0.008186
-0.023303
0.011335
0.053741
1.067889
0.251472
0.233592
-0.883862
-1.337447
-1.532108
-1.764080
-1.923089
-1.637614
-0.770287
0.338351
0.729316
0.762585
0.729905
0.806328
0.771809
0.674996
0.629404
0.846031
0.816795
0.454804
0.275217
0.242269
0.217721
1.330757
0.035711
0.095014
-0.797522
-1.254965
-1.588192
-1.813338
-2.005756
-1.553415
-0.443934
0.478267
0.781616
0.705188
0.591417
0.642162
0.636005
0.613620
0.526411
1.017658
0.693079
0.392297
0.318180
0.251556
0.348185
1.419271
0.394148
0.518726
-0.851411
-1.166713
-1.755843
-2.419480
-2.238276
-0.536477
0.611239
0.698113
0.580510
0.683353
0.647460
0.533370
0.422909
0.357637
0.352187
0.299685
0.672911
0.267218
0.137497
0.176455
0.195511
2.200371
0.713883
0.787424
-0.616498
-0.933496
-1.274387
-1.721876
-2.154110
-1.742374
-0.401367
0.591979
0.724792
0.627176
0.623293
0.573083
0.451030
0.334384
0.283633
0.386892
0.564004
0.091855
-0.028213
-0.043248
-0.038231
2.485535
1.208548
0.643451
-0.374300
-0.813454
-1.132327
-1.553729
-1.867684
-1.729967
-0.601569
0.551204
0.755223
0.577699
0.477194
0.476465
0.379585
0.199798
0.141663
0.465364
0.223540
-0.086103
-0.148083
-0.188791
-0.089263
0.974751
1.303915
-0.371298
-0.453329
-0.950789
-1.068126
-1.144056
-1.510121
-1.742051
-1.616706
-1.216140
-0.401062
0.222107
0.389297
0.522596
0.550635
0.665681
0.933470
1.303296
1.208054
0.772709
0.570654
0.523905
0.532605
1.836558
0.486654
1.182954
-0.634007
-1.145383
-1.429603
-1.715395
-1.908597
-1.436971
-0.181214
0.829675
1.038592
0.709855
0.557835
0.519741
0.502517
0.265055
0.114404
0.455039
0.474763
-0.014001
-0.153158
-0.173487
-0.181825
1.390718
0.170089
0.199921
-0.917960
-1.302088
-1.461021
-1.823773
-1.901660
-1.508572
-0.460416
0.454134
0.919222
0.745622
0.651357
0.679811
0.687259
0.646240
0.501969
0.889430
0.695070
0.262940
0.165277
0.183564
0.132867
1.752220
0.002097
0.220780
-0.637142
-0.947661
-1.343412
-1.918700
-2.247829
-1.461901
0.033044
1.010469
1.000660
0.808677
0.837418
0.690722
0.676275
0.566794
0.431202
0.507316
0.401438
-0.061670
-0.132977
-0.104491
-0.083327
1.661724
-0.088021
-0.015555
-0.715017
-1.225640
-1.453407
-1.815388
-1.885663
-1.437570
-0.173895
0.966038
0.906010
0.651516
0.483418
0.482855
0.434721
0.332303
0.229659
0.716524
0.639505
0.250800
0.320740
0.289547
0.444797
2.581301
0.697882
0.440024
-0.187089
-0.718039
-1.060176
-1.547255
-1.814867
-1.446795
-0.335082
0.703558
0.972714
0.778846
0.560816
0.522778
0.429589
0.269187
0.086543
0.334153
0.226974
-0.308716
-0.377240
-0.424909
-0.384200
1.790839
0.279179
0.187717
-0.589165
-1.079000
-1.430727
-1.795067
-1.964729
-1.250435
-0.120034
0.870150
1.032623
0.718024
0.695867
0.578798
0.536303
0.407780
0.317068
0.712299
0.305472
-0.060662
-0.054104
-0.076550
-0.011646
2.213542
1.145538
1.248308
0.045775
-0.731119
-1.016114
-1.414401
-1.825500
-1.573798
-0.625776
0.373932
0.826396
0.700417
0.569021
0.543029
0.410726
0.254355
0.073141
0.374212
0.134776
-0.319505
-0.482280
-0.461522
-0.463151
1.213947
1.313146
-0.138406
-0.262048
-0.739713
-1.094161
-1.319350
-1.638160
-1.842383
-1.749511
-1.062266
-0.265791
0.109846
0.415223
0.377188
0.282444
0.375434
0.654732
1.098325
1.100572
0.833937
0.864538
0.793864
0.678591
1.617281
0.537841
0.212126
-0.909655
-1.191371
-1.658186
-2.286484
-2.298692
-0.913083
0.399904
0.600270
0.418207
0.418750
0.495165
0.471386
0.437259
0.365519
0.406411
0.740619
0.658731
0.345615
0.297229
0.283656
0.551500
0.380695
-0.434741
-0.834262
-1.213094
-1.725495
-1.935476
-1.510005
-0.406309
0.939835
1.062254
0.913614
0.779018
0.678573
0.679328
0.328044
0.149341
0.415610
0.187693
-0.092912
-0.309037
-0.228909
-0.250861
1.671215
0.755880
2.452725
0.834254
0.372587
-0.342848
-0.801475
-1.227380
-1.669171
-1.760359
-1.507942
-0.424638
0.599132
0.919547
0.721249
0.599480
0.455280
0.313207
0.261270
0.089642
0.408397
0.325298
-0.138403
-0.184926
-0.160466
-0.134460
2.186604
0.499745
0.216920
-0.379843
-0.937903
-1.302970
-1.626858
-1.994276
-1.343687
0.055158
0.827416
0.934124
0.657153
0.528696
0.463290
0.391663
0.283682
0.103426
0.565642
0.425386
-0.066000
-0.134449
-0.228704
-0.124212
1.894921
0.642190
0.228207
-0.790396
-1.187676
-1.867811
-2.405933
-1.728136
-0.127549
0.587731
0.599275
0.564516
0.574906
0.540924
0.409119
0.262439
0.148607
0.216748
0.411234
-0.024205
-0.047356
-0.017507
0.520622
0.595131
1.567931
-0.543215
-0.078401
-0.947204
-1.247672
-1.500185
-1.728235
-1.878540
-1.533685
-0.629796
0.307236
0.718222
0.759083
0.712211
0.649213
0.719086
0.686683
0.597444
1.046480
0.771683
0.473853
0.362982
0.334796
0.380030
1.564184
1.642220
0.113179
-0.287558
-0.855589
-1.129631
-1.505382
-1.728192
-1.863683
-0.893584
0.419527
0.937749
0.863067
0.626966
0.607004
0.551602
0.431752
0.243081
0.426493
0.405155
-0.012706
-0.092671
-0.242610
-0.220374
2.304398
0.843723
-0.396507
-0.286340
-0.656570
-0.860714
-1.293809
-1.632207
-1.783227
-1.442362
-0.604242
0.159759
0.394938
0.383202
0.226403
0.130458
0.441700
0.730200
1.138220
1.170539
0.534509
0.390973
0.155140
-0.048183
1.079726
1.839596
0.006689
-0.015084
-0.232330
-0.777934
-0.911484
-1.169425
-1.445762
-1.836409
-1.832290
-1.168359
-0.416691
0.350059
0.696688
0.713441
0.665113
0.530594
0.478125
0.645037
0.887957
0.990462
0.820287
0.101995
1.475071
-0.191058
0.180438
-0.544079
-1.179225
-1.483750
-1.686312
-1.992897
-1.736242
-0.593636
0.536383
0.881609
0.576905
0.622020
0.560456
0.580813
0.584007
0.486439
0.917828
0.636298
0.418595
0.320626
0.317857
0.311854
1.626202
0.060888
-0.724213
-0.783551
-1.002171
-1.230758
-1.461239
-1.860684
-1.301037
-0.289582
0.682788
1.112950
0.929904
0.808607
0.760870
0.720873
0.688548
0.470709
0.694052
0.616493
0.088328
-0.135066
-0.234508
-0.238403
