-1.084963
-0.115065
0.493129
0.564568
-0.563990
-0.057771
0.317285
0.601414
-0.850577
-0.501827
0.178029
0.767653
0.243605
-0.882362
-0.292911
0.463724
0.559688
-0.576084
-0.724117
0.297293
0.854392
-0.129197
-0.702568
-0.173030
0.524244
0.568278
-0.610791
-0.283579
0.373833
0.609720
-0.599245
-0.527256
0.179481
0.868245
0.210753
-0.992707
-0.175026
0.528675
0.330248
-0.509664
-0.641218
-0.191319
0.488807
0.459318
-0.462950
0.066864
0.520186
0.470203
-0.833523
-0.585688
0.337100
0.717854
-0.346204
-0.349949
0.332643
0.799533
0.178269
0.082702
-0.072813
0.147695
-0.420116
-0.902547
-0.345788
0.384199
0.692170
-0.462722
-0.588887
0.297241
0.818947
0.228470
-1.016604
-0.173102
0.522989
0.442246
-0.726579
-0.200102
0.352759
0.859900
-0.563980
-0.234202
0.125491
0.604999
-0.090668
-0.373814
-0.807950
0.440263
0.406807
-0.456192
-0.442016
0.219015
0.876152
0.098623
-0.642732
-0.100983
0.404144
0.226398
-0.752096
-0.201553
0.305061
0.879269
-0.707855
-0.898407
-0.068886
0.752365
0.941241
-1.075116
-0.359005
0.433046
0.538784
-0.276091
-0.528255
0.431087
0.889961
-0.798678
-0.510748
0.082287
0.675008
0.500633
-0.808087
-0.705897
0.161719
0.804065
-0.270530
-0.276781
0.295204
0.787039
-0.376789
-0.715295
-0.102585
0.482890
0.548161
-0.085627
-0.025852
0.830458
0.325057
-1.196907
1.179126
0.294607
-0.193297
-0.953591
-1.000511
-0.024711
0.457836
0.360183
-0.716388
-0.837686
0.024664
0.853929
0.366960
-0.787575
-0.023841
0.606488
0.551389
-0.732267
-0.448384
0.392506
0.536510
-0.380153
-0.448270
0.018843
0.932283
-0.002112
-1.115485
-0.298152
0.492411
0.851339
-0.492860
-0.501990
0.519200
0.643453
-0.559445
0.129974
0.572280
0.275815
-0.216235
-0.994116
-0.558933
0.450603
0.778918
-0.504473
-0.453278
-0.207497
0.591606
0.325248
-0.927470
-0.247902
0.569772
1.048212
-0.691921
-0.281274
0.502764
0.327678
-0.516275
-0.580902
0.369752
0.840798
-0.256295
-0.816655
0.338814
0.602395
0.414042
-1.113978
-0.447664
0.474991
0.689678
-0.446285
-0.403173
0.431872
0.585007
0.105943
-0.846487
-0.435587
0.420231
0.633454
-0.482556
0.155510
0.412620
0.645141
-1.243864
-0.496171
0.144525
0.629241
0.479710
-0.875478
0.152401
0.261704
0.606336
-0.943220
-0.558668
0.313841
0.899340
-0.176425
-0.981755
-0.199065
0.550884
0.648791
-0.660567
-0.069903
0.165242
0.702022
-0.749120
-0.170428
0.061267
0.956269
0.050763
-1.053237
-0.271618
0.441097
0.531561
-0.585197
-0.381498
0.413457
0.776517
-0.561499
-0.544346
0.001559
0.495758
0.690206
-0.994085
-0.116377
0.372570
0.696920
-0.746626
-0.345320
0.323650
0.981054
-0.565581
-0.657981
-0.130034
0.436726
0.547090
-0.511610
0.020314
0.282063
0.478015
-0.854152
-0.362633
0.216440
0.563416
0.413383
-0.984898
-0.167151
0.521625
0.466112
-0.579498
-0.408613
0.442374
0.786335
-0.800207
-0.490599
0.139783
0.645419
0.423222
-0.908310
-0.545045
0.422850
0.599359
-0.402891
-0.672922
0.083861
0.887062
0.038174
-0.589322
0.058005
0.546554
0.304547
-0.738718
-0.005195
0.325323
0.738528
-0.938749
0.071549
0.202769
0.800128
-0.271461
-0.926088
-0.363316
0.509676
0.587065
-0.383920
-0.727183
0.361813
0.719106
-0.408226
-0.483780
0.130191
0.636197
0.180857
-0.593182
-0.574510
0.478516
0.635396
-0.391346
-0.733071
0.255635
0.860575
-0.165681
-0.042554
0.359726
0.416832
-0.256150
-0.744627
-0.052461
0.656244
0.335207
-0.994737
-0.177092
0.210872
0.670971
0.013043
-0.963459
-0.196185
0.405878
0.727975
-0.850907
-0.241326
0.238281
0.879365
-0.706776
-0.396522
0.102948
0.735553
0.254110
-0.772786
-0.334969
0.449089
0.412056
0.013168
-0.043631
0.512115
0.595292
-1.211887
-0.915811
0.238399
0.735332
0.510138
-0.885534
-0.233786
0.407186
0.548699
-0.775882
-0.735690
0.031873
0.813411
0.654287
-0.995390
0.001073
0.503016
0.385978
-0.821380
-0.396057
0.367795
0.778966
-0.522684
-0.525324
0.030477
0.641890
0.517926
-0.866392
-0.516109
-0.103096
1.045366
-0.145900
-0.448708
0.395720
0.539521
-0.205416
-0.749539
-0.105506
0.392494
0.641123
-0.739265
-0.424516
0.492080
0.726809
-0.638812
-0.453806
-0.131496
0.902398
0.426767
-1.166043
-0.202471
0.548347
0.565225
-0.340780
-0.807023
0.260039
0.688401
-0.290281
-0.586529
-0.058870
0.771900
0.543399
-0.261623
0.376268
0.273643
0.052840
-1.048438
-0.532230
0.351627
0.879308
-0.409658
-0.710464
-0.133811
0.467645
0.606667
-0.862005
-0.616341
0.252462
0.755220
-0.021474
-0.602700
0.301575
0.764723
0.191451
-1.039686
-0.092806
0.523263
0.349659
-0.577771
-0.466259
0.414785
0.686439
-0.377910
0.084921
0.146284
0.830576
-0.458316
-0.815989
-0.184288
0.394357
0.693010
-0.934021
-0.417888
0.282077
0.647323
-0.005480
-0.826503
-0.048871
0.498248
0.434774
-0.419167
0.140668
-0.154297
0.487796
-0.622318
-0.138975
0.377196
0.565093
0.024077
-1.061096
-0.133905
0.466385
0.584559
-0.640706
-0.299739
0.447318
0.481123
-0.627368
0.711177
0.318106
-0.231737
-0.036519
-0.712456
-0.363055
0.346129
0.773833
-0.720974
-0.844659
0.077799
0.699423
0.773169
-0.985129
-0.340545
0.446061
0.517127
-0.551826
-0.373887
0.425206
0.619388
-0.585539
-0.450147
0.123013
0.861500
0.287971
-0.345955
0.227672
-0.118792
0.180238
-0.506363
-0.752269
0.260233
0.869215
-0.488784
-0.488690
0.107411
0.748782
0.353831
-0.267758
0.741501
-0.106961
-0.258557
-0.869320
-0.741957
0.256550
0.656326
0.222816
-0.668335
-0.073333
0.629992
0.402749
-0.840731
-0.462701
0.474437
0.558157
-0.403837
-0.441862
0.168395
0.585291
0.392609
-0.939355
-0.511948
0.483081
0.710177
-0.670936
-0.175941
0.321955
0.857662
-0.461903
-0.478075
-0.010490
0.507643
0.231923
-0.802599
-0.215066
0.406114
0.578046
-0.756914
-0.214966
0.206830
0.921620
-0.429303
-0.712873
-0.117689
0.429523
0.606146
-0.636116
-0.689672
0.375889
0.814926
-0.382506
-0.638990
0.119892
0.817534
0.456383
-1.013434
-0.153163
0.422249
0.657557
-0.804131
-0.230163
0.260748
0.692197
-0.188216
0.782616
0.361899
0.420706
-0.892626
-1.104087
-0.484554
0.543816
0.645025
-0.733370
-0.333434
0.320613
0.836229
-0.477917
-0.592540
-0.039574
0.544813
0.614137
-1.238296
-0.248303
0.753604
0.651940
-0.729039
-0.485079
0.238229
0.741261
0.260286
-0.746184
0.189501
0.454912
0.297110
-0.434012
1.013529
-0.202790
-0.556976
-0.592063
-0.890688
-0.172802
0.575430
0.961147
-0.723632
-0.564127
0.443215
0.696131
-0.809732
-0.182997
-0.002240
0.325956
0.631881
-0.926108
-0.086404
0.614181
0.642868
-0.532996
-0.133488
0.606488
0.517963
-1.211839
-0.417745
0.218133
0.820488
0.177890
-1.159890
-0.307640
0.474669
0.645986
-0.472448
-0.400615
0.368809
0.780316
-0.628428
-0.249745
0.299572
0.538536
-0.010386
-0.728619
-0.580794
0.451237
0.779585
-0.615903
-0.176521
0.205521
0.985226
-0.690805
-0.453091
0.029963
0.493702
0.228922
-0.733336
-0.186148
0.317296
0.481864
-0.408328
-0.549447
0.117879
0.708279
0.444782
-1.024242
-0.177305
0.595956
0.399144
-0.748292
-0.329071
0.293688
0.829204
-0.507203
-0.684717
-0.034922
0.654451
0.595990
-0.684727
-0.352769
0.359283
0.564093
-0.626396
-0.230514
0.225945
0.979990
-0.356368
-0.647845
-0.088033
0.366603
0.310511
-0.594964
-0.453963
0.396019
0.621515
-0.386819
-0.630681
0.197320
0.772595
0.396526
-0.873092
-0.280037
0.476754
0.402859
-0.384811
-0.664920
0.124547
0.908443
-0.267951
0.021409
0.023771
0.535708
-0.036967
-0.573476
0.119380
0.397078
0.414522
-1.128236
-0.685383
0.179802
0.792335
0.150784
-0.463270
0.387771
0.581939
0.154950
-1.038698
-0.520350
0.389619
0.713824
-0.574038
-0.572955
0.190244
0.701628
0.396815
-1.278920
-0.265850
0.448387
0.881510
-0.316317
0.013116
0.360243
0.433874
-1.015917
-0.463950
0.145580
0.686796
0.297753
-0.653402
-0.551613
0.383144
0.482034
-0.394166
-0.475684
0.164573
0.912828
-0.152700
0.621551
0.325815
0.228829
-0.516940
-1.266443
-0.072859
0.463525
0.703704
-0.941264
-0.495379
0.107449
0.869579
0.331117
-1.183496
-0.402088
0.373499
0.859193
-0.455564
-0.604892
0.418257
0.785826
-0.474791
-0.608678
-0.018744
0.622952
0.628896
-1.018562
-0.223876
0.235720
0.760269
-0.550580
-0.621584
-0.150093
0.964208
0.285995
-0.602481
-0.137257
0.526658
0.634253
-0.927620
-0.372920
0.341869
0.657491
0.138036
0.541047
0.519236
0.232862
-1.173043
-0.970615
-0.346806
0.429215
0.566441
-0.533729
-0.254001
0.368841
0.666107
-0.692194
-0.337763
0.096661
0.827682
0.303657
-0.998948
-0.251213
0.402596
0.522826
-0.398246
-0.920961
0.513804
0.770901
-0.128530
-0.665356
-0.001492
0.534192
0.400312
-0.860358
-0.228744
0.183744
0.722412
-0.466848
-0.651329
0.134515
0.844758
0.418470
-1.064691
-0.241241
0.486976
0.494167
-0.506628
0.016849
0.283889
0.850365
-0.992296
-0.716925
0.056662
0.663236
0.547943
-0.885553
-0.448002
0.378265
0.681626
-0.368449
-0.718011
0.178175
0.806779
-0.033096
-0.169072
0.154747
0.494852
0.073276
-0.856738
-0.454709
0.513333
0.495005
-0.401584
-0.694310
0.217462
0.608947
0.548754
-1.107758
-0.586662
0.555809
0.651767
-0.289585
-0.730025
0.136837
0.838270
-0.240757
-0.295639
0.114760
0.566492
0.269332
-0.802308
-0.233526
0.517535
0.412713
-0.509616
-0.663737
0.322586
0.769790
-0.035213
0.009296
0.113322
0.405135
-0.190880
-1.077147
-0.430182
0.322438
0.803475
-0.494658
-0.129697
0.056700
0.978236
-0.027102
-1.027341
-0.282419
0.483806
0.624716
-0.674345
-0.476298
0.438761
0.820998
-0.683694
-0.179631
0.162750
0.764323
0.087556
-1.251996
-0.359881
0.284402
0.837376
-0.352741
-0.561573
0.294796
0.854742
-0.200937
-0.840534
-0.171945
0.607691
0.670617
-0.689277
-0.377851
0.288310
0.528464
-0.342533
-0.233886
0.383326
0.733056
-0.158807
-1.135095
-0.282277
0.483205
0.597307
-0.549834
-0.393514
0.335807
0.707345
-0.423220
-0.601810
0.028968
0.637209
0.491364
-0.819460
-0.262053
0.500625
0.558210
-0.533022
-0.775726
0.172922
0.782984
0.090527
-0.685414
-0.244342
0.628812
0.587983
-0.817126
-0.557047
0.454621
0.663579
-0.411599
-0.647872
0.206336
0.857914
0.353693
-0.771922
-0.544498
0.435327
0.563070
-0.093152
-0.293218
0.419561
0.480829
-0.852697
-0.875260
-0.145458
0.617894
0.935098
-0.735683
-0.525025
0.573156
0.543768
-0.493258
-0.526672
0.293051
0.797763
-0.054994
-0.998051
-0.147248
0.604610
0.592651
-0.671930
-0.408486
0.474411
0.684445
-0.612001
-0.683862
0.130561
0.820622
0.466597
-0.899236
-0.517037
0.490986
0.652635
-0.522510
-0.827068
0.463369
0.858823
-0.333670
-0.653709
0.013246
0.635386
0.520445
-0.864590
-0.258746
0.526925
0.765180
-0.924379
-0.429735
0.217623
0.920983
-0.149022
-0.792540
-0.058712
0.675884
0.429128
-0.873771
-0.419711
0.276211
0.700667
-0.493763
-0.464935
0.067638
0.827789
0.440216
-1.020599
-0.036918
0.441898
0.530591
-0.783783
-0.422298
0.229823
0.742957
-0.437993
-0.081980
0.179549
0.539181
0.311462
-0.171056
-0.030184
0.328672
-0.116127
-0.990539
-0.181277
0.384224
0.767031
-0.558250
-1.011754
-0.219130
0.586045
0.711383
0.015469
0.386550
-0.285862
0.259577
-0.904947
-0.341428
0.263419
0.914207
0.002087
-1.136850
-0.650595
0.321362
0.966949
-0.382343
-0.371792
0.282501
0.729614
-0.569289
-0.323157
0.153207
0.807495
0.205733
-0.798495
-0.528774
0.417151
0.464805
-0.387789
-0.551547
0.335871
0.800616
-0.232665
-0.780550
-0.099007
0.596600
0.582289
-0.746378
-0.355177
0.574215
0.559475
-0.634908
-0.523338
0.420965
0.684506
0.169298
-0.759444
0.186261
0.303767
0.478432
-1.180037
-0.434158
0.443141
0.715872
-0.355005
-0.523430
0.067785
0.691469
0.223716
-0.759684
-0.320618
0.357887
0.611749
-0.501575
-0.685338
0.268532
0.829908
0.330988
-0.915295
-0.372932
0.464235
0.483159
-0.490422
-0.520794
0.524505
0.730105
-0.579484
-0.662941
0.076077
0.740641
0.532930
0.044328
0.146288
-0.270847
0.011240
-0.918984
-0.106555
0.267503
0.821947
-0.742084
-0.522744
0.161460
0.551707
0.501660
-0.623978
-0.453809
0.484500
0.384365
-0.598313
-0.397238
0.180142
0.984386
-0.075373
-0.913318
-0.301792
0.402719
0.662790
0.148759
0.008198
0.060146
0.245172
0.064455
0.837740
0.306051
-0.018940
-1.331583
-1.166393
-0.211194
0.382612
0.583503
-0.395024
-0.470528
0.359900
0.785482
-0.585574
-0.169575
0.097897
0.866077
0.086647
-1.119675
-0.367958
0.419955
0.458294
-0.231415
-0.699453
0.356628
0.812731
-0.093195
-0.876422
-0.245883
0.455031
0.726802
-0.613799
-0.409110
0.434788
0.607250
-0.261887
-0.750216
0.065885
0.651514
0.516307
-1.203504
-0.293343
0.584238
0.531625
-0.413679
-0.020772
0.308070
0.812023
-0.810781
-0.612783
0.024173
0.604196
0.347070
-0.706660
-0.461373
0.454355
0.612749
-0.412742
0.293302
0.487070
0.483268
-1.367346
0.432026
0.472507
0.609433
-1.340423
-0.021586
0.159982
0.530358
0.082444
-0.638400
0.455727
0.198747
0.504510
-1.316683
0.391319
0.101516
0.588267
-0.911329
-0.518823
-0.184134
-0.014951
1.269293
-0.987201
0.118950
0.241771
0.770579
-1.184637
0.271614
0.027126
0.650368
-0.241923
-0.066854
0.309974
0.354571
0.415274
-1.603050
0.060315
0.294385
0.752215
-1.004633
-0.535245
0.200465
0.716592
0.155897
-0.650178
-0.301545
-0.001942
0.857042
-0.798101
0.015771
0.504370
0.653004
-0.461143
-0.139796
0.139086
0.353128
0.413949
-1.280068
-0.380705
-0.048523
0.623295
-0.352454
-0.291439
-0.019571
0.835078
0.280835
-0.520396
0.165401
0.499974
0.621993
-1.430046
0.413302
0.270736
0.629480
-1.180481
-0.215157
0.098657
0.580519
0.360246
-0.910877
0.265648
0.458651
0.644028
-1.365287
0.446648
0.138721
0.558312
-0.663915
-0.265067
0.384483
0.482765
0.035528
-0.980684
0.340542
0.240614
0.629347
-1.338346
0.228340
0.408571
0.540736
-0.572986
-0.462293
0.369386
0.510931
0.379156
-1.411015
0.096974
0.266720
0.828180
-0.756651
0.192565
0.160804
0.504609
-0.204749
-0.854585
0.394986
0.419758
0.515985
-1.606343
0.345820
0.128409
0.672799
-0.828390
-0.109263
-0.039217
0.529239
0.604817
-1.257052
0.291324
0.426997
0.492426
-1.175197
0.207124
0.070028
0.696201
-0.400485
0.047332
0.214775
0.294779
0.440450
-1.456160
0.458740
0.200642
0.685550
-1.441601
0.147944
0.109837
0.628906
-0.235244
-0.155338
0.421213
0.163856
0.540525
-1.862206
0.143611
0.470140
0.655497
-0.569058
-0.413643
-0.131067
0.578341
0.696618
-1.413149
-0.349859
-0.106129
0.284586
0.414612
0.199922
0.222962
0.560991
-0.448373
-0.348074
0.282075
0.444679
0.473668
-1.554672
-0.033644
0.274309
0.868221
-0.664178
-0.030907
0.439591
0.590985
-0.392378
-0.754802
0.339725
0.306438
0.513632
-1.330147
0.170918
0.084816
0.758006
-0.705731
-0.332293
0.104068
0.579839
0.507586
-1.131579
0.345979
0.372394
0.515168
-1.528205
0.133308
0.259033
0.663920
-0.221746
-0.767802
-0.223751
0.137856
1.177432
-0.843090
0.132693
0.126655
0.822625
-0.614912
0.128260
0.086019
0.524047
-0.223352
-0.835552
0.087440
0.379237
0.648626
-1.335775
0.347898
0.398981
0.534690
-0.724671
-0.292273
0.003850
0.479923
0.391655
-1.433964
0.168418
0.372094
0.804592
-1.002541
-0.149616
-0.058874
0.097073
0.656113
-0.577268
0.136145
0.388739
0.670330
-1.374716
0.318511
0.137359
0.820638
-0.858478
0.068765
0.220397
0.622022
-0.472668
-0.704097
0.111488
0.466827
0.711367
-1.263858
0.422506
0.162488
0.595627
-0.829146
-0.337461
-0.030655
0.568189
0.636855
-1.173949
0.337811
0.203821
0.678152
-0.859542
0.374744
-0.008202
0.507441
-0.670183
0.054884
0.518984
0.178960
-0.095847
-1.423722
0.287458
0.299932
0.663716
-1.022352
0.209502
0.096234
0.529132
-0.231242
-0.560707
0.414053
0.504536
0.462942
-1.753956
0.068298
0.153076
0.784422
-0.240736
-0.160580
0.183345
0.345350
0.230859
-0.980469
0.298458
0.365114
0.458415
-1.135660
-0.047722
0.192594
0.493427
-0.140694
0.076445
0.388101
0.303568
0.239974
-1.721803
0.335897
0.173499
0.767784
-1.085346
-0.354499
-0.044262
0.769178
0.451562
-0.811200
0.437243
0.387635
0.485144
-1.557204
0.156892
0.456760
0.613837
-0.637480
-0.197766
0.248104
0.453706
0.384888
-1.101981
-0.274953
-0.116811
0.539216
-0.471710
0.262337
-0.102198
0.719099
-0.173657
-0.540278
0.297377
0.478358
0.545317
-1.342689
0.064283
0.298132
0.718119
-0.923121
-0.044000
0.318285
0.586627
-0.007294
-0.877189
0.474777
0.556092
0.404464
-1.772865
0.300963
0.185073
0.645516
-0.375344
-0.569526
0.161028
0.581760
0.295472
-0.900601
0.170068
0.373226
0.660053
-1.606114
-0.182844
0.094256
0.769975
0.162646
-0.105045
0.031808
0.473554
0.542408
-1.260141
0.533303
0.019658
0.675219
-1.412020
0.199830
0.216301
0.475268
0.025678
-1.157294
-0.424535
-0.151418
0.636740
0.225432
0.478287
0.415763
0.513494
-1.245400
-0.263959
0.057805
0.524799
0.538276
-1.209102
0.307275
0.163101
0.730973
-1.132044
0.194173
0.003830
0.713855
-0.335871
0.141691
0.411360
0.228806
0.175756
-1.640435
0.290556
0.150054
0.857622
-0.894737
-0.126110
0.315285
0.630098
-0.272448
-0.556044
0.274364
0.326442
0.479346
-1.527555
-0.216415
0.162397
0.881377
-0.441575
-0.306968
-0.003296
0.707021
0.527910
-1.121496
-0.067252
0.377859
0.837578
-1.125583
0.223500
0.104061
0.579009
-0.382181
-0.519892
-0.006335
0.522899
0.561780
-1.283207
0.117895
0.152068
0.766453
-0.893008
-0.026305
0.120190
0.560812
0.361241
-0.889961
0.249034
0.430753
0.587577
-1.514334
0.363431
0.099611
0.741860
-0.496179
-0.393166
-0.296381
0.037215
1.206138
-1.221786
-0.028536
0.323951
0.838640
-1.039167
0.049576
0.372031
0.152904
-0.007803
-0.009380
0.360992
0.228335
0.421851
-1.665678
-0.102474
0.221874
0.863899
-0.782113
-0.090651
0.124612
0.530460
0.305716
-1.252110
-0.011309
0.448642
0.837161
-1.294456
-0.211096
-0.430721
0.348748
1.296296
0.054865
0.317652
0.278928
0.021535
-1.254360
0.275363
0.467196
0.582832
-0.781177
0.117861
0.751630
-0.927469
-0.043456
-0.528388
0.099217
0.464096
0.672101
-1.384604
0.269724
0.399879
0.578326
-0.967848
-0.314388
-0.260670
0.158255
1.129684
-0.793126
0.372942
0.359760
0.527037
-1.583082
0.121549
0.320018
0.635399
-0.497656
-0.383631
0.056144
0.514329
0.613864
-1.206786
0.316040
0.420596
0.494939
-0.898214
0.339733
0.053774
0.542032
-0.641045
-0.607499
-0.074164
0.468530
0.818688
-1.325606
-0.196376
0.230026
0.908340
-0.588634
-0.079158
0.425141
0.647681
-0.430513
-0.562911
0.030205
0.350674
0.747709
-1.624262
0.299533
0.053379
0.774942
-0.387659
-0.287399
0.156437
0.495562
0.339626
-0.723696
0.100816
0.312438
0.654814
-1.576391
-0.117057
0.061684
0.813891
-0.108789
-0.646502
-0.032137
0.557558
0.614375
-1.044799
0.272968
0.263136
0.723653
-1.215796
0.204879
0.214757
0.590679
-0.365059
-0.631128
0.249157
0.461378
0.573440
-1.443934
0.518945
0.061361
0.688293
-0.735840
-0.480943
0.076674
0.536276
0.583548
-1.086829
-0.393927
-0.050456
0.789363
0.123044
0.984973
0.129890
0.084987
-1.175983
-0.798278
-0.133123
0.004820
1.166525
-0.973355
0.311778
0.192259
0.788341
-1.154432
-0.291945
-0.206497
0.729705
0.453323
-0.669693
0.234507
0.270799
0.729030
-1.266963
0.094725
0.207993
0.604640
-0.493106
-0.446233
0.225966
0.570266
0.554231
-1.357037
0.399601
0.301382
0.687651
-0.924833
0.285184
0.199852
0.501407
-0.798487
-0.411620
0.306973
0.475052
0.404835
-1.017737
0.522228
0.271476
0.514258
-1.126305
0.160603
0.324941
0.436509
-0.460653
-1.313631
0.122244
0.442649
0.803593
-1.045931
0.415469
0.030726
0.741378
-0.621113
-0.394222
0.205580
0.490886
0.340099
-1.188398
0.441191
0.195278
0.696178
-1.012508
0.391785
0.318205
0.463973
-0.923992
-0.013058
0.450064
0.447476
0.115911
-1.613348
0.164361
0.102458
0.829021
-0.499686
0.132605
0.020345
0.494282
-0.156008
-1.272512
0.184378
0.320224
0.836031
-1.268535
0.454781
0.293984
0.691707
-0.597253
-0.028964
0.323192
0.294308
0.151438
-0.795562
0.427389
0.131977
0.503923
-1.904992
0.289748
0.160232
0.690989
-0.360906
-0.153843
0.419317
0.451113
0.209101
-1.897141
0.081722
0.294613
0.833100
-0.717414
-0.004517
0.280910
0.587234
-0.192992
-0.734982
0.353138
0.337984
0.519438
-1.280327
0.250054
0.114823
0.713768
-0.366591
-0.412626
0.137693
0.424506
0.501619
-1.441072
0.367724
0.376114
0.651114
-1.344965
0.200396
0.114441
0.665869
-0.339321
-0.154275
0.420410
0.477870
0.231301
